0.00027446
-0.00044183
-0.0011586
-0.0018739
-0.0025864
-0.0032945
-0.0039972
-0.0046935
-0.0053829
-0.0060649
-0.0067395
-0.0074068
-0.008067
-0.0087209
-0.0093692
-0.010013
-0.010653
-0.011291
-0.011929
-0.012567
-0.013208
-0.013853
-0.014504
-0.015163
-0.015831
-0.01651
-0.017202
-0.017908
-0.01863
-0.019369
-0.020127
-0.020905
-0.021703
-0.022524
-0.023367
-0.024233
-0.025124
-0.026039
-0.026979
-0.027943
-0.028933
-0.029947
-0.030986
-0.032048
-0.033134
-0.034243
-0.035373
-0.036524
-0.037694
-0.038883
-0.040087
-0.041307
-0.042539
-0.043781
-0.045033
-0.04629
-0.047551
-0.048813
-0.050074
-0.05133
-0.052579
-0.053817
-0.055043
-0.056253
-0.057445
-0.058615
-0.059761
-0.060881
-0.061972
-0.063033
-0.064061
-0.065055
-0.066013
-0.066935
-0.067819
-0.068667
-0.069476
-0.070249
-0.070985
-0.071686
-0.072353
-0.072988
-0.073592
-0.074167
-0.074718
-0.075245
-0.075751
-0.076241
-0.076717
-0.077182
-0.077639
-0.078092
-0.078544
-0.078998
-0.079457
-0.079925
-0.080405
-0.080898
-0.081408
-0.081937
-0.082488
-0.083062
-0.083662
-0.084289
-0.084945
-0.08563
-0.086348
-0.087097
-0.087879
-0.088695
-0.089546
-0.09043
-0.09135
-0.092303
-0.093292
-0.094314
-0.09537
-0.096459
-0.097581
-0.098735
-0.099919
-0.10113
-0.10238
-0.10365
-0.10494
-0.10627
-0.10761
-0.10898
-0.11036
-0.11177
-0.11319
-0.11463
-0.11607
-0.11753
-0.119
-0.12047
-0.12195
-0.12342
-0.1249
-0.12637
-0.12784
-0.1293
-0.13075
-0.13218
-0.1336
-0.13501
-0.13639
-0.13776
-0.1391
-0.14042
-0.14172
-0.14299
-0.14424
-0.14547
-0.14666
-0.14784
-0.14899
-0.15012
-0.15123
-0.15232
-0.1534
-0.15446
-0.15551
-0.15654
-0.15758
-0.1586
-0.15963
-0.16065
-0.16167
-0.1627
-0.16373
-0.16476
-0.1658
-0.16684
-0.16788
-0.16892
-0.16997
-0.171
-0.17203
-0.17305
-0.17406
-0.17505
-0.17602
-0.17696
-0.17787
-0.17874
-0.17958
-0.18039
-0.18115
-0.18187
-0.18255
-0.18319
-0.18379
-0.18436
-0.18489
-0.1854
-0.18589
-0.18636
-0.18683
-0.1873
-0.18779
-0.18829
-0.18883
-0.1894
-0.19002
-0.19069
-0.19142
-0.19221
-0.19307
-0.194
-0.195
-0.19607
-0.1972
-0.19838
-0.19961
-0.20088
-0.20216
-0.20346
-0.20474
-0.206
-0.20722
-0.20837
-0.20945
-0.21043
-0.2113
-0.21204
-0.21266
-0.21313
-0.21346
-0.21366
-0.21372
-0.21366
-0.2135
-0.21327
-0.21299
-0.21272
-0.21249
-0.21235
-0.21236
-0.2126
-0.21311
-0.21399
-0.21529
-0.21711
-0.21951
-0.22258
-0.22639
-0.23101
-0.23652
-0.24296
-0.2504
-0.25888
-0.26843
-0.27906
-0.2908
-0.30363
-0.31753
-0.33246
-0.34837
-0.36519
-0.38284
-0.4012
-0.42017
-0.43961
-0.45938
-0.47932
-0.49926
-0.51902
-0.53843
-0.55729
-0.57541
-0.59261
-0.60868
-0.62346
-0.63675
-0.64839
-0.65821
-0.66608
-0.67185
-0.67542
-0.67667
-0.67554
-0.67196
-0.6659
-0.65732
-0.64624
-0.63267
-0.61667
-0.59828
-0.5776
-0.55472
-0.52975
-0.50284
-0.47411
-0.44374
-0.41189
-0.37872
-0.34443
-0.30919
-0.2732
-0.23665
-0.19972
-0.1626
-0.12546
-0.088495
-0.051861
-0.015719
0.019778
0.05449
0.088287
0.12105
0.15267
0.18306
0.21213
0.23981
0.26605
0.29079
0.31399
0.33565
0.35573
0.37424
0.39118
0.40656
0.4204
0.43274
0.4436
0.45302
0.46106
0.46775
0.47316
0.47733
0.48034
0.48223
0.48309
0.48296
0.48192
0.48004
0.47738
0.47401
0.47
0.46541
0.46032
0.45479
0.44889
0.44267
0.43621
0.42956
0.42279
0.41595
0.40909
0.40228
0.39555
0.38897
0.38256
0.37639
0.37048
0.36488
0.35961
0.35471
0.35021
0.34613
0.3425
0.33934
0.33668
0.33452
0.3329
0.33183
0.33132
0.33141
0.33212
0.33346
0.33548
0.33819
0.34164
0.34586
0.3509
0.35681
0.36364
0.37146
0.38032
0.39031
0.40148
0.41393
0.42773
0.44296
0.45972
0.47808
0.49814
0.51997
0.54365
0.56926
0.59687
0.62652
0.65826
0.69214
0.72818
0.76637
0.80672
0.84919
0.89375
0.94033
0.98885
1.0392
1.0913
1.145
1.2001
1.2564
1.3138
1.3721
1.431
1.4904
1.5499
1.6094
1.6685
1.7271
1.7849
1.8417
1.8972
1.9511
2.0034
2.0537
2.1018
2.1477
2.1911
2.232
2.2702
2.3055
2.3381
2.3677
2.3944
2.4183
2.4392
2.4573
2.4726
2.4852
2.4953
2.5028
2.508
2.511
2.512
2.511
2.5083
2.5041
2.4985
2.4916
2.4838
2.475
2.4655
2.4555
2.4451
2.4344
2.4237
2.4129
2.4022
2.3918
2.3817
2.3721
2.3629
2.3543
2.3462
2.3389
2.3322
2.3262
2.3209
2.3164
2.3126
2.3096
2.3072
2.3055
2.3044
2.304
2.3041
2.3048
2.306
2.3076
2.3096
2.3119
2.3145
2.3173
2.3203
2.3234
2.3265
2.3297
2.3329
2.3359
2.3388
2.3416
2.3442
2.3465
2.3486
2.3503
2.3518
2.353
2.3539
2.3544
2.3546
2.3545
2.3541
2.3534
2.3524
2.3511
2.3497
2.348
2.3461
2.3441
2.342
2.3397
2.3374
2.335
2.3326
2.3303
2.3279
2.3256
2.3233
2.3212
2.319
2.317
2.3151
2.3132
2.3114
2.3097
2.308
2.3063
2.3047
2.303
2.3013
2.2995
2.2976
2.2956
2.2934
2.291
2.2883
2.2853
2.282
2.2783
2.2742
2.2695
2.2643
2.2585
2.252
2.2448
2.2367
2.2277
2.2177
2.2066
2.1942
2.1805
2.1653
2.1484
2.1297
2.109
2.086
2.0606
2.0325
2.0015
1.9673
1.9296
1.8882
1.8426
1.7925
1.7377
1.6778
1.6124
1.5412
1.4638
1.3799
1.2891
1.1912
1.0857
0.97252
0.85128
0.72179
0.58385
0.43734
0.28213
0.11817
-0.054542
-0.23596
-0.42598
-0.62443
-0.83111
-1.0457
-1.268
-1.4974
-1.7336
-1.9761
-2.2243
-2.4776
-2.7355
-2.9972
-3.262
-3.5293
-3.7984
-4.0684
-4.3388
-4.6087
-4.8775
-5.1445
-5.4091
-5.6706
-5.9286
-6.1825
-6.4319
-6.6763
-6.9155
-7.1492
-7.377
-7.599
-7.8151
-8.0251
-8.2291
-8.4272
-8.6196
-8.8063
-8.9877
-9.1639
-9.3352
-9.5018
-9.6641
-9.8222
-9.9766
-10.127
-10.275
-10.419
-10.561
-10.7
-10.836
-10.969
-11.1
-11.229
-11.355
-11.478
-11.599
-11.717
-11.832
-11.944
-12.052
-12.157
-12.258
-12.355
-12.448
-12.536
-12.619
-12.697
-12.77
-12.838
-12.9
-12.957
-13.007
-13.052
-13.092
-13.125
-13.153
-13.174
-13.191
-13.202
-13.207
-13.207
-13.203
-13.193
-13.179
-13.161
-13.139
-13.112
-13.082
-13.049
-13.013
-12.973
-12.931
-12.886
-12.839
-12.79
-12.739
-12.686
-12.631
-12.574
-12.515
-12.455
-12.393
-12.329
-12.264
-12.197
-12.128
-12.057
-11.984
-11.908
-11.831
-11.75
-11.667
-11.58
-11.491
-11.397
-11.3
-11.198
-11.092
-10.981
-10.865
-10.744
-10.617
-10.483
-10.344
-10.197
-10.044
-9.8832
-9.7152
-9.5394
-9.3559
-9.1645
-8.9651
-8.7577
-8.5423
-8.3191
-8.0882
-7.8498
-7.6042
-7.3518
-7.0929
-6.8281
-6.5579
-6.2829
-6.0038
-5.7213
-5.4363
-5.1493
-4.8615
-4.5735
-4.2864
-4.0009
-3.7181
-3.4388
-3.1639
-2.8943
-2.6307
-2.3739
-2.1247
-1.8838
-1.6517
-1.4289
-1.216
-1.0133
-0.821
-0.63942
-0.46865
-0.30874
-0.15964
-0.021244
0.10663
0.22425
0.33192
0.43002
0.51897
0.59923
0.67129
0.73568
0.79294
0.84362
0.88828
0.92745
0.9617
0.99154
1.0175
1.04
1.0596
1.0766
1.0915
1.1045
1.1161
1.1265
1.1359
1.1446
1.1527
1.1604
1.1678
1.1749
1.1819
1.1888
1.1956
1.2023
1.2089
1.2154
1.2218
1.2281
1.2342
1.24
1.2457
1.251
1.2561
1.2608
1.2652
1.2693
1.273
1.2763
1.2793
1.2819
1.2842
1.2861
1.2877
1.2891
1.2901
1.2909
1.2914
1.2917
1.2919
1.2918
1.2915
1.2911
1.2905
1.2898
1.289
1.288
1.2869
1.2857
1.2843
1.2828
1.2812
1.2794
1.2775
1.2755
1.2733
1.271
1.2686
1.266
1.2634
1.2607
1.2579
1.2551
1.2522
1.2494
1.2466
1.2438
1.2412
1.2386
1.2363
1.2341
1.2321
1.2304
1.2289
1.2276
1.2266
1.2259
1.2255
1.2252
1.2251
1.2252
1.2254
1.2256
1.2257
1.2256
1.2253
1.2245
1.2232
1.2212
1.2184
1.2146
1.2096
1.2032
1.1952
1.1856
1.174
1.1602
1.1442
1.1257
1.1045
1.0805
1.0535
1.0235
0.99017
0.95354
0.91348
0.86994
0.82287
0.77224
0.71806
0.66035
0.59914
0.53452
0.46656
0.39539
0.32113
0.24393
0.16398
0.081451
-0.003447
-0.090495
-0.17946
-0.27011
-0.36218
-0.45543
-0.54958
-0.64438
-0.73955
-0.83482
-0.92995
-1.0246
-1.1187
-1.2118
-1.3037
-1.3942
-1.4831
-1.5701
-1.6551
-1.7378
-1.8181
-1.8959
-1.9708
-2.043
-2.1121
-2.1781
-2.2409
-2.3004
-2.3566
-2.4094
-2.4588
-2.5048
-2.5473
-2.5864
-2.6222
-2.6545
-2.6836
-2.7095
-2.7322
-2.7519
-2.7686
-2.7825
-2.7936
-2.8022
-2.8084
-2.8122
-2.814
-2.8137
-2.8117
-2.808
-2.8028
-2.7963
-2.7887
-2.7801
-2.7706
-2.7605
-2.7499
-2.739
-2.7278
-2.7166
-2.7054
-2.6943
-2.6835
-2.6731
-2.6631
-2.6537
-2.6448
-2.6366
-2.629
-2.6222
-2.616
-2.6106
-2.6059
-2.602
-2.5987
-2.5961
-2.5942
-2.5928
-2.592
-2.5916
-2.5917
-2.5922
-2.5931
-2.5942
-2.5956
-2.5971
-2.5987
-2.6004
-2.6022
-2.6039
-2.6056
-2.6073
-2.6088
-2.6103
-2.6116
-2.6127
-2.6137
-2.6145
-2.6151
-2.6154
-2.6156
-2.6154
-2.615
-2.6142
-2.613
-2.6113
-2.6091
-2.6062
-2.6027
-2.5983
-2.593
-2.5865
-2.5788
-2.5698
-2.5591
-2.5467
-2.5323
-2.5159
-2.4971
-2.4759
-2.452
-2.4254
-2.3958
-2.363
-2.3272
-2.288
-2.2455
-2.1997
-2.1505
-2.098
-2.0423
-1.9834
-1.9216
-1.857
-1.7899
-1.7204
-1.6488
-1.5756
-1.5009
-1.4252
-1.3487
-1.272
-1.1953
-1.119
-1.0435
-0.96917
-0.89633
-0.82531
-0.7564
-0.68989
-0.62601
-0.56496
-0.50693
-0.45203
-0.40039
-0.35204
-0.30701
-0.2653
-0.22685
-0.19159
-0.15941
-0.13019
-0.10376
-0.079952
-0.058586
-0.039463
-0.022379
-0.0071266
0.0064994
0.018702
0.029676
0.039609
0.048674
0.057033
0.06483
0.072194
0.079238
0.086054
0.09272
0.099295
0.10582
0.11233
0.11882
0.12531
0.13178
0.13821
0.14456
0.15081
0.15691
0.16282
0.16848
0.17387
0.17893
0.18362
0.1879
0.19175
0.19513
0.19803
0.20042
0.20231
0.20369
0.20456
0.20494
0.20484
0.20429
0.20331
0.20194
0.20022
0.19817
0.19584
0.19327
0.19051
0.18759
0.18456
0.18146
0.17832
0.17519
0.17209
0.16905
0.16611
0.16327
0.16057
0.15801
0.15561
0.15338
0.15132
0.14943
0.14771
0.14615
0.14476
0.14351
0.14241
0.14144
0.14058
0.13983
0.13917
0.13859
0.13808
0.13762
0.13721
0.13684
0.13648
0.13615
0.13583
0.13551
0.13519
0.13487
0.13454
0.13421
0.13388
0.13354
0.13319
0.13284
0.1325
0.13215
0.13181
0.13147
0.13115
0.13083
0.13053
0.13024
0.12997
0.12971
0.12947
0.12924
0.12903
0.12883
0.12864
0.12845
0.12828
0.1281
0.12793
0.12775
0.12756
0.12736
0.12715
0.12692
0.12666
0.12638
0.12607
0.12573
0.12535
0.12493
0.12448
0.12398
0.12344
0.12287
0.12225
0.12158
0.12088
0.12014
0.11936
0.11855
0.1177
0.11683
0.11594
0.11502
0.11409
0.11315
0.11221
0.11127
0.11033
0.10941
0.10851
0.10764
0.1068
0.106
0.10524
0.10453
0.10388
0.10329
0.10276
0.1023
0.10191
0.10159
0.10134
0.10117
0.10108
0.10106
0.10111
0.10122
0.10141
0.10166
0.10196
0.10231
0.10271
0.10314
0.10361
0.10409
0.1046
0.10511
0.10562
0.10612
0.10661
0.10707
0.1075
0.1079
0.10826
0.10858
0.10884
0.10906
0.10922
0.10932
0.10937
0.10936
0.1093
0.10918
0.10901
0.1088
0.10854
0.10823
0.1079
0.10753
0.10713
0.1067
0.10626
0.1058
0.10533
0.10484
0.10435
0.10386
0.10336
0.10286
0.10235
0.10184
0.10133
0.10081
0.10029
0.099754
0.099206
0.098642
0.09806
0.097455
0.096825
0.096166
0.095475
0.094749
0.093986
0.093185
0.092342
0.091458
0.090531
0.089563
0.088552
0.087501
0.086412
0.085286
0.084126
0.082936
0.081719
0.080478
0.079217
0.077941
0.076654
0.075359
0.07406
0.072761
0.071465
0.070176
0.068896
0.067626
0.06637
0.065127
0.0639
0.062687
0.06149
0.060307
0.059138
0.057981
0.056836
0.055701
0.054574
0.053454
0.05234
0.051229
0.050121
0.049016
0.047912
0.04681
0.045711
0.044614
0.043522
0.042436
0.041358
0.040291
0.039238
0.038202
0.037187
0.036196
0.035233
0.034302
0.033406
0.032548
0.031732
0.030961
0.030237
0.029561
0.028936
0.028362
0.027838
0.027366
0.026943
0.026568
0.02624
0.025955
0.025711
0.025505
0.025334
0.025193
0.025079
